log(r)=19.99	log(t)=4.50657
6	31.114
6.45	31.615
6.9	31.2121
7.35	30.4885
7.8	29.6511
8.25	28.7733
8.7	27.8811
9.15	26.9839
9.6	26.0849
10.05	25.1852
10.5	24.2853
10.95	23.3851
11.4	22.4844
11.85	21.5824
12.3	20.6768
12.75	19.7611
13.2	18.8166
13.65	17.7915
14.1	16.5387
14.55	14.6445
15	10.9425
