log(r)=19.99	log(t)=4.50657
6	35.6206
6.45	36.1216
6.9	35.7187
7.35	34.9951
7.8	34.1576
8.25	33.2798
8.7	32.3877
9.15	31.4905
9.6	30.5915
10.05	29.6918
10.5	28.7918
10.95	27.8916
11.4	26.9909
11.85	26.089
12.3	25.1834
12.75	24.2676
13.2	23.3232
13.65	22.2981
14.1	21.0453
14.55	19.1511
15	8.94253
