log(r)=19.99	log(t)=4.50657
6	37.1066
6.45	37.6076
6.9	37.2047
7.35	36.4811
7.8	35.6437
8.25	34.7659
8.7	33.8738
9.15	32.9766
9.6	32.0775
10.05	31.1779
10.5	30.2779
10.95	29.3777
11.4	28.477
11.85	27.575
12.3	26.6694
12.75	25.7537
13.2	24.8093
13.65	23.7841
14.1	22.5313
14.55	20.6372
15	16.9351
