log(r)=21.49	log(t)=-2
6	29.614
6.45	30.115
6.9	29.7121
7.35	28.9885
7.8	28.1511
8.25	27.2733
8.7	26.3811
9.15	25.4839
9.6	24.5849
10.05	23.6852
10.5	22.7853
10.95	21.8851
11.4	20.9844
11.85	20.0824
12.3	19.1768
12.75	18.2611
13.2	17.3166
13.65	16.2915
14.1	15.0387
14.55	13.1445
15	9.44253
